;RAW4.00
[RawHeader]
Date=02/02/2011
EstimatedTotalTime=0
FurtherDQLReading=0
HardwareIndicator=65519
MeasuredTotalTime=0
MeasurementFlag=1
NumberOfMeasuredRanges=1
NumberOfRanges=1
Time=17:42:43

[HardwareConfiguration]
AbsorptionFactor=0
ActivateAbsorber=0
Alpha1=1.5406
Alpha2=1.54439
AlphaAverage=1.54184
AlphaRatio=0.5
Analyzer=1
Anode=Cu
AntiScatteringSlit=0.6
BeamOpticsFlags=61
Beta=1.39222
BetaRelativeIntensity=0
DeactivateAbsorber=0
DetectorSlit=0.1
DivergenceSlit=0.6
GoniometerControl=9999
GoniometerDiameter=401
GoniometerModel=260
GoniometerStage=0
Monochromator=0
NearSampleSlit=0
PrimarySollerSlit=2.5
SampleChanger=0
SecondSollerSlit=2.5
SynchronousAxis=0
ThinFilmAttachment=0
WaveUnit=A

[VarInfo]
Type=OSUSER
Flags=0
Value=Finatec Uni

[VarInfo]
Type=USER
Flags=0
Value=Administrator

[VarInfo]
Type=SITE
Flags=0
Value=Brasilien

[VarInfo]
Type=CREATOR
Flags=0
Value=XRD Commander

[VarInfo]
Type=SAMPLEID
Flags=0
Value=LCCu1

[RangeHeader]
ActuallyUsedLambda=1.5406
AdditionalDetectorMask=0
DataRecordLength=4
DelayTime=0
DisplayPlaneNumber=0
EstimatedScanTime=0
ExtraParametersMask=0
GeneratorCurrent=30
GeneratorVoltage=40
Increment=0.05
Increment3=0
NumberOfCompletedData=1601
NumberOfCounts=1
NumberOfDetectors=1
NumberOfDrives=2
NumberOfEncoderDrives=0
NumberOfMeasuredData=1601
NumberOfVaryingParameters=0
RangeStartTime=1091567616
RotationSpeed=0
ScanMode=0
ScanType=Locked Coupled
SimulatedMeasConditions=0
SlitChangerIn=9999
SmootingWidth=0
Start=10
Steps=1601
SynchronousRotation=0
Time=30

[Drive]
DriveFlags=1
DriveName=Theta
DriveNumber=1
DriveOffset=0
OffsetIndex=0
OscillationAmplitude=0
OscillationSpeed=0
StartPosition=5

[Drive]
DriveFlags=1
DriveName=2Theta
DriveNumber=2
DriveOffset=0
OffsetIndex=0
OscillationAmplitude=0
OscillationSpeed=0
StartPosition=10

[Detector]
AmplifierGain=80
ConstantDeadTime=0
DetectorFlags=256
DetectorName=Detector 1
DetectorNumber=1
DetectorType=1
Discriminator1LowerLevel=0.7165
Discriminator1WindowWidth=1.0535
Discriminator2LowerLevel=0
Discriminator2WindowWidth=0
HighVoltage=700
PileUpTime=0
PulseShaping=9999
TTLDetectorName=

[Data]
     Angle, Det1Disc1,
        10,       184,
     10.05,       200,
      10.1,       192,
     10.15,       232,
      10.2,       213,
     10.25,       166,
      10.3,       219,
     10.35,       174,
      10.4,       188,
     10.45,       193,
      10.5,       182,
     10.55,       193,
      10.6,       188,
     10.65,       208,
      10.7,       207,
     10.75,       196,
      10.8,       180,
     10.85,       180,
      10.9,       197,
     10.95,       198,
        11,       187,
     11.05,       205,
      11.1,       211,
     11.15,       205,
      11.2,       200,
     11.25,       204,
      11.3,       214,
     11.35,       206,
      11.4,       189,
     11.45,       183,
      11.5,       204,
     11.55,       205,
      11.6,       194,
     11.65,       199,
      11.7,       177,
     11.75,       210,
      11.8,       218,
     11.85,       207,
      11.9,       203,
     11.95,       174,
        12,       192,
     12.05,       189,
      12.1,       203,
     12.15,       207,
      12.2,       180,
     12.25,       187,
      12.3,       223,
     12.35,       195,
      12.4,       177,
     12.45,       212,
      12.5,       198,
     12.55,       206,
      12.6,       226,
     12.65,       195,
      12.7,       205,
     12.75,       198,
      12.8,       196,
     12.85,       204,
      12.9,       192,
     12.95,       199,
        13,       214,
     13.05,       234,
      13.1,       236,
     13.15,       203,
      13.2,       175,
     13.25,       187,
      13.3,       195,
     13.35,       193,
      13.4,       210,
     13.45,       213,
      13.5,       181,
     13.55,       199,
      13.6,       191,
     13.65,       210,
      13.7,       213,
     13.75,       211,
      13.8,       199,
     13.85,       177,
      13.9,       212,
     13.95,       209,
        14,       190,
     14.05,       191,
      14.1,       177,
     14.15,       188,
      14.2,       177,
     14.25,       192,
      14.3,       174,
     14.35,       194,
      14.4,       197,
     14.45,       180,
      14.5,       193,
     14.55,       184,
      14.6,       167,
     14.65,       178,
      14.7,       197,
     14.75,       203,
      14.8,       192,
     14.85,       185,
      14.9,       170,
     14.95,       168,
        15,       193,
     15.05,       215,
      15.1,       200,
     15.15,       188,
      15.2,       190,
     15.25,       176,
      15.3,       187,
     15.35,       193,
      15.4,       176,
     15.45,       161,
      15.5,       184,
     15.55,       185,
      15.6,       182,
     15.65,       176,
      15.7,       191,
     15.75,       170,
      15.8,       200,
     15.85,       170,
      15.9,       178,
     15.95,       178,
        16,       182,
     16.05,       190,
      16.1,       171,
     16.15,       184,
      16.2,       168,
     16.25,       176,
      16.3,       192,
     16.35,       175,
      16.4,       166,
     16.45,       169,
      16.5,       194,
     16.55,       184,
      16.6,       193,
     16.65,       187,
      16.7,       194,
     16.75,       161,
      16.8,       189,
     16.85,       196,
      16.9,       196,
     16.95,       151,
        17,       198,
     17.05,       152,
      17.1,       187,
     17.15,       179,
      17.2,       173,
     17.25,       150,
      17.3,       185,
     17.35,       183,
      17.4,       179,
     17.45,       176,
      17.5,       199,
     17.55,       189,
      17.6,       181,
     17.65,       177,
      17.7,       185,
     17.75,       178,
      17.8,       192,
     17.85,       174,
      17.9,       226,
     17.95,       206,
        18,       199,
     18.05,       228,
      18.1,       238,
     18.15,       222,
      18.2,       257,
     18.25,       251,
      18.3,       205,
     18.35,       261,
      18.4,       249,
     18.45,       259,
      18.5,       252,
     18.55,       220,
      18.6,       251,
     18.65,       222,
      18.7,       248,
     18.75,       242,
      18.8,       213,
     18.85,       191,
      18.9,       184,
     18.95,       188,
        19,       171,
     19.05,       210,
      19.1,       180,
     19.15,       185,
      19.2,       182,
     19.25,       190,
      19.3,       189,
     19.35,       174,
      19.4,       211,
     19.45,       158,
      19.5,       180,
     19.55,       183,
      19.6,       177,
     19.65,       192,
      19.7,       142,
     19.75,       155,
      19.8,       187,
     19.85,       156,
      19.9,       173,
     19.95,       187,
        20,       170,
     20.05,       173,
      20.1,       130,
     20.15,       199,
      20.2,       198,
     20.25,       164,
      20.3,       152,
     20.35,       153,
      20.4,       169,
     20.45,       151,
      20.5,       173,
     20.55,       159,
      20.6,       174,
     20.65,       153,
      20.7,       150,
     20.75,       180,
      20.8,       174,
     20.85,       179,
      20.9,       156,
     20.95,       165,
        21,       168,
     21.05,       179,
      21.1,       153,
     21.15,       141,
      21.2,       156,
     21.25,       170,
      21.3,       138,
     21.35,       151,
      21.4,       135,
     21.45,       148,
      21.5,       161,
     21.55,       147,
      21.6,       157,
     21.65,       146,
      21.7,       157,
     21.75,       172,
      21.8,       129,
     21.85,       150,
      21.9,       177,
     21.95,       144,
        22,       141,
     22.05,       155,
      22.1,       161,
     22.15,       173,
      22.2,       153,
     22.25,       136,
      22.3,       156,
     22.35,       174,
      22.4,       157,
     22.45,       173,
      22.5,       158,
     22.55,       152,
      22.6,       156,
     22.65,       142,
      22.7,       157,
     22.75,       155,
      22.8,       155,
     22.85,       179,
      22.9,       154,
     22.95,       145,
        23,       155,
     23.05,       147,
      23.1,       152,
     23.15,       168,
      23.2,       164,
     23.25,       171,
      23.3,       154,
     23.35,       136,
      23.4,       165,
     23.45,       170,
      23.5,       193,
     23.55,       177,
      23.6,       148,
     23.65,       158,
      23.7,       162,
     23.75,       145,
      23.8,       153,
     23.85,       174,
      23.9,       163,
     23.95,       177,
        24,       169,
     24.05,       175,
      24.1,       140,
     24.15,       169,
      24.2,       151,
     24.25,       146,
      24.3,       148,
     24.35,       165,
      24.4,       169,
     24.45,       148,
      24.5,       188,
     24.55,       134,
      24.6,       130,
     24.65,       158,
      24.7,       157,
     24.75,       157,
      24.8,       166,
     24.85,       160,
      24.9,       153,
     24.95,       164,
        25,       181,
     25.05,       161,
      25.1,       167,
     25.15,       164,
      25.2,       147,
     25.25,       145,
      25.3,       186,
     25.35,       151,
      25.4,       134,
     25.45,       160,
      25.5,       160,
     25.55,       152,
      25.6,       169,
     25.65,       156,
      25.7,       146,
     25.75,       169,
      25.8,       151,
     25.85,       167,
      25.9,       149,
     25.95,       167,
        26,       182,
     26.05,       150,
      26.1,       198,
     26.15,       185,
      26.2,       181,
     26.25,       168,
      26.3,       165,
     26.35,       174,
      26.4,       153,
     26.45,       204,
      26.5,       156,
     26.55,       171,
      26.6,       146,
     26.65,       162,
      26.7,       163,
     26.75,       165,
      26.8,       158,
     26.85,       159,
      26.9,       171,
     26.95,       168,
        27,       169,
     27.05,       167,
      27.1,       169,
     27.15,       174,
      27.2,       162,
     27.25,       178,
      27.3,       171,
     27.35,       166,
      27.4,       170,
     27.45,       156,
      27.5,       201,
     27.55,       180,
      27.6,       174,
     27.65,       152,
      27.7,       168,
     27.75,       186,
      27.8,       165,
     27.85,       158,
      27.9,       172,
     27.95,       173,
        28,       173,
     28.05,       175,
      28.1,       161,
     28.15,       167,
      28.2,       167,
     28.25,       189,
      28.3,       176,
     28.35,       194,
      28.4,       166,
     28.45,       165,
      28.5,       184,
     28.55,       166,
      28.6,       173,
     28.65,       190,
      28.7,       197,
     28.75,       206,
      28.8,       180,
     28.85,       223,
      28.9,       177,
     28.95,       188,
        29,       206,
     29.05,       196,
      29.1,       205,
     29.15,       170,
      29.2,       189,
     29.25,       220,
      29.3,       200,
     29.35,       201,
      29.4,       229,
     29.45,       218,
      29.5,       263,
     29.55,       249,
      29.6,       240,
     29.65,       261,
      29.7,       270,
     29.75,       311,
      29.8,       296,
     29.85,       352,
      29.9,       349,
     29.95,       343,
        30,       365,
     30.05,       342,
      30.1,       401,
     30.15,       394,
      30.2,       380,
     30.25,       404,
      30.3,       397,
     30.35,       392,
      30.4,       339,
     30.45,       376,
      30.5,       354,
     30.55,       336,
      30.6,       325,
     30.65,       312,
      30.7,       287,
     30.75,       272,
      30.8,       273,
     30.85,       268,
      30.9,       263,
     30.95,       242,
        31,       234,
     31.05,       208,
      31.1,       225,
     31.15,       196,
      31.2,       229,
     31.25,       208,
      31.3,       221,
     31.35,       214,
      31.4,       228,
     31.45,       205,
      31.5,       188,
     31.55,       203,
      31.6,       201,
     31.65,       219,
      31.7,       219,
     31.75,       208,
      31.8,       208,
     31.85,       210,
      31.9,       202,
     31.95,       192,
        32,       182,
     32.05,       179,
      32.1,       198,
     32.15,       194,
      32.2,       203,
     32.25,       190,
      32.3,       209,
     32.35,       196,
      32.4,       204,
     32.45,       201,
      32.5,       199,
     32.55,       191,
      32.6,       168,
     32.65,       171,
      32.7,       193,
     32.75,       193,
      32.8,       211,
     32.85,       192,
      32.9,       201,
     32.95,       194,
        33,       211,
     33.05,       181,
      33.1,       230,
     33.15,       206,
      33.2,       188,
     33.25,       224,
      33.3,       213,
     33.35,       214,
      33.4,       206,
     33.45,       223,
      33.5,       207,
     33.55,       194,
      33.6,       231,
     33.65,       229,
      33.7,       214,
     33.75,       247,
      33.8,       241,
     33.85,       238,
      33.9,       228,
     33.95,       229,
        34,       243,
     34.05,       235,
      34.1,       280,
     34.15,       265,
      34.2,       262,
     34.25,       269,
      34.3,       261,
     34.35,       292,
      34.4,       273,
     34.45,       313,
      34.5,       331,
     34.55,       309,
      34.6,       342,
     34.65,       422,
      34.7,       365,
     34.75,       392,
      34.8,       439,
     34.85,       481,
      34.9,       465,
     34.95,       508,
        35,       558,
     35.05,       585,
      35.1,       611,
     35.15,       697,
      35.2,       782,
     35.25,       799,
      35.3,       840,
     35.35,       888,
      35.4,       908,
     35.45,       948,
      35.5,      1001,
     35.55,       986,
      35.6,       966,
     35.65,       951,
      35.7,       941,
     35.75,       946,
      35.8,       813,
     35.85,       823,
      35.9,       789,
     35.95,       741,
        36,       668,
     36.05,       642,
      36.1,       581,
     36.15,       558,
      36.2,       546,
     36.25,       428,
      36.3,       415,
     36.35,       394,
      36.4,       377,
     36.45,       378,
      36.5,       360,
     36.55,       340,
      36.6,       350,
     36.65,       332,
      36.7,       290,
     36.75,       298,
      36.8,       318,
     36.85,       285,
      36.9,       263,
     36.95,       265,
        37,       276,
     37.05,       279,
      37.1,       280,
     37.15,       275,
      37.2,       262,
     37.25,       251,
      37.3,       253,
     37.35,       239,
      37.4,       227,
     37.45,       224,
      37.5,       202,
     37.55,       267,
      37.6,       209,
     37.65,       215,
      37.7,       210,
     37.75,       187,
      37.8,       203,
     37.85,       175,
      37.9,       184,
     37.95,       195,
        38,       185,
     38.05,       165,
      38.1,       186,
     38.15,       179,
      38.2,       191,
     38.25,       166,
      38.3,       188,
     38.35,       175,
      38.4,       168,
     38.45,       194,
      38.5,       189,
     38.55,       159,
      38.6,       174,
     38.65,       158,
      38.7,       167,
     38.75,       171,
      38.8,       168,
     38.85,       166,
      38.9,       154,
     38.95,       180,
        39,       185,
     39.05,       160,
      39.1,       149,
     39.15,       159,
      39.2,       169,
     39.25,       165,
      39.3,       154,
     39.35,       157,
      39.4,       167,
     39.45,       165,
      39.5,       158,
     39.55,       161,
      39.6,       150,
     39.65,       150,
      39.7,       191,
     39.75,       165,
      39.8,       185,
     39.85,       185,
      39.9,       157,
     39.95,       143,
        40,       148,
     40.05,       171,
      40.1,       165,
     40.15,       195,
      40.2,       155,
     40.25,       162,
      40.3,       152,
     40.35,       164,
      40.4,       171,
     40.45,       162,
      40.5,       155,
     40.55,       164,
      40.6,       183,
     40.65,       179,
      40.7,       175,
     40.75,       172,
      40.8,       169,
     40.85,       151,
      40.9,       169,
     40.95,       167,
        41,       165,
     41.05,       155,
      41.1,       148,
     41.15,       168,
      41.2,       151,
     41.25,       162,
      41.3,       151,
     41.35,       166,
      41.4,       168,
     41.45,       184,
      41.5,       160,
     41.55,       172,
      41.6,       162,
     41.65,       157,
      41.7,       188,
     41.75,       158,
      41.8,       148,
     41.85,       190,
      41.9,       189,
     41.95,       144,
        42,       174,
     42.05,       172,
      42.1,       175,
     42.15,       197,
      42.2,       191,
     42.25,       179,
      42.3,       191,
     42.35,       205,
      42.4,       205,
     42.45,       201,
      42.5,       197,
     42.55,       193,
      42.6,       211,
     42.65,       244,
      42.7,       250,
     42.75,       243,
      42.8,       226,
     42.85,       243,
      42.9,       294,
     42.95,       271,
        43,       275,
     43.05,       281,
      43.1,       278,
     43.15,       266,
      43.2,       293,
     43.25,       285,
      43.3,       281,
     43.35,       290,
      43.4,       272,
     43.45,       280,
      43.5,       262,
     43.55,       262,
      43.6,       262,
     43.65,       219,
      43.7,       254,
     43.75,       219,
      43.8,       218,
     43.85,       204,
      43.9,       190,
     43.95,       212,
        44,       194,
     44.05,       202,
      44.1,       185,
     44.15,       196,
      44.2,       196,
     44.25,       156,
      44.3,       174,
     44.35,       199,
      44.4,       178,
     44.45,       194,
      44.5,       149,
     44.55,       171,
      44.6,       160,
     44.65,       166,
      44.7,       175,
     44.75,       160,
      44.8,       162,
     44.85,       145,
      44.9,       165,
     44.95,       171,
        45,       176,
     45.05,       146,
      45.1,       165,
     45.15,       160,
      45.2,       165,
     45.25,       154,
      45.3,       130,
     45.35,       134,
      45.4,       144,
     45.45,       144,
      45.5,       187,
     45.55,       145,
      45.6,       161,
     45.65,       155,
      45.7,       131,
     45.75,       155,
      45.8,       161,
     45.85,       149,
      45.9,       163,
     45.95,       154,
        46,       162,
     46.05,       146,
      46.1,       130,
     46.15,       164,
      46.2,       145,
     46.25,       162,
      46.3,       134,
     46.35,       128,
      46.4,       148,
     46.45,       138,
      46.5,       138,
     46.55,       138,
      46.6,       174,
     46.65,       147,
      46.7,       156,
     46.75,       147,
      46.8,       154,
     46.85,       126,
      46.9,       161,
     46.95,       152,
        47,       181,
     47.05,       129,
      47.1,       136,
     47.15,       150,
      47.2,       139,
     47.25,       158,
      47.3,       132,
     47.35,       134,
      47.4,       127,
     47.45,       149,
      47.5,       136,
     47.55,       150,
      47.6,       113,
     47.65,       144,
      47.7,       150,
     47.75,       130,
      47.8,       129,
     47.85,       130,
      47.9,       148,
     47.95,       156,
        48,       166,
     48.05,       143,
      48.1,       129,
     48.15,       147,
      48.2,       145,
     48.25,       150,
      48.3,       160,
     48.35,       143,
      48.4,       134,
     48.45,       138,
      48.5,       128,
     48.55,       127,
      48.6,       128,
     48.65,       150,
      48.7,       163,
     48.75,       124,
      48.8,       143,
     48.85,       160,
      48.9,       104,
     48.95,       137,
        49,       162,
     49.05,       145,
      49.1,       156,
     49.15,       138,
      49.2,       133,
     49.25,       128,
      49.3,       119,
     49.35,       142,
      49.4,       140,
     49.45,       156,
      49.5,       135,
     49.55,       146,
      49.6,       133,
     49.65,       133,
      49.7,       136,
     49.75,       126,
      49.8,       134,
     49.85,       136,
      49.9,       148,
     49.95,       138,
        50,       111,
     50.05,       138,
      50.1,       165,
     50.15,       159,
      50.2,       124,
     50.25,       148,
      50.3,       138,
     50.35,       144,
      50.4,       141,
     50.45,       140,
      50.5,       137,
     50.55,       141,
      50.6,       133,
     50.65,       138,
      50.7,       119,
     50.75,       148,
      50.8,       154,
     50.85,       158,
      50.9,       143,
     50.95,       162,
        51,       131,
     51.05,       159,
      51.1,       145,
     51.15,       117,
      51.2,       139,
     51.25,       154,
      51.3,       150,
     51.35,       134,
      51.4,       148,
     51.45,       151,
      51.5,       161,
     51.55,       146,
      51.6,       134,
     51.65,       154,
      51.7,       137,
     51.75,       149,
      51.8,       160,
     51.85,       164,
      51.9,       153,
     51.95,       137,
        52,       153,
     52.05,       141,
      52.1,       146,
     52.15,       158,
      52.2,       160,
     52.25,       126,
      52.3,       164,
     52.35,       151,
      52.4,       164,
     52.45,       151,
      52.5,       144,
     52.55,       169,
      52.6,       168,
     52.65,       159,
      52.7,       150,
     52.75,       169,
      52.8,       180,
     52.85,       172,
      52.9,       161,
     52.95,       172,
        53,       204,
     53.05,       231,
      53.1,       158,
     53.15,       177,
      53.2,       220,
     53.25,       200,
      53.3,       224,
     53.35,       194,
      53.4,       223,
     53.45,       232,
      53.5,       222,
     53.55,       222,
      53.6,       202,
     53.65,       215,
      53.7,       218,
     53.75,       215,
      53.8,       211,
     53.85,       233,
      53.9,       193,
     53.95,       199,
        54,       207,
     54.05,       184,
      54.1,       186,
     54.15,       189,
      54.2,       199,
     54.25,       195,
      54.3,       170,
     54.35,       184,
      54.4,       184,
     54.45,       198,
      54.5,       170,
     54.55,       184,
      54.6,       166,
     54.65,       150,
      54.7,       165,
     54.75,       157,
      54.8,       170,
     54.85,       172,
      54.9,       207,
     54.95,       167,
        55,       154,
     55.05,       150,
      55.1,       171,
     55.15,       165,
      55.2,       156,
     55.25,       173,
      55.3,       183,
     55.35,       170,
      55.4,       183,
     55.45,       175,
      55.5,       156,
     55.55,       168,
      55.6,       156,
     55.65,       169,
      55.7,       189,
     55.75,       176,
      55.8,       189,
     55.85,       178,
      55.9,       192,
     55.95,       220,
        56,       212,
     56.05,       201,
      56.1,       188,
     56.15,       203,
      56.2,       217,
     56.25,       255,
      56.3,       232,
     56.35,       254,
      56.4,       231,
     56.45,       260,
      56.5,       255,
     56.55,       282,
      56.6,       244,
     56.65,       270,
      56.7,       287,
     56.75,       285,
      56.8,       313,
     56.85,       342,
      56.9,       335,
     56.95,       345,
        57,       345,
     57.05,       357,
      57.1,       394,
     57.15,       365,
      57.2,       349,
     57.25,       365,
      57.3,       340,
     57.35,       361,
      57.4,       365,
     57.45,       347,
      57.5,       329,
     57.55,       298,
      57.6,       297,
     57.65,       299,
      57.7,       286,
     57.75,       281,
      57.8,       244,
     57.85,       230,
      57.9,       222,
     57.95,       241,
        58,       258,
     58.05,       224,
      58.1,       207,
     58.15,       205,
      58.2,       210,
     58.25,       224,
      58.3,       208,
     58.35,       193,
      58.4,       196,
     58.45,       167,
      58.5,       183,
     58.55,       166,
      58.6,       193,
     58.65,       186,
      58.7,       177,
     58.75,       167,
      58.8,       160,
     58.85,       177,
      58.9,       161,
     58.95,       179,
        59,       161,
     59.05,       145,
      59.1,       170,
     59.15,       178,
      59.2,       152,
     59.25,       173,
      59.3,       162,
     59.35,       187,
      59.4,       157,
     59.45,       172,
      59.5,       180,
     59.55,       165,
      59.6,       160,
     59.65,       149,
      59.7,       164,
     59.75,       173,
      59.8,       144,
     59.85,       175,
      59.9,       144,
     59.95,       178,
        60,       179,
     60.05,       170,
      60.1,       170,
     60.15,       161,
      60.2,       171,
     60.25,       185,
      60.3,       157,
     60.35,       150,
      60.4,       177,
     60.45,       149,
      60.5,       190,
     60.55,       167,
      60.6,       168,
     60.65,       166,
      60.7,       186,
     60.75,       160,
      60.8,       154,
     60.85,       136,
      60.9,       200,
     60.95,       186,
        61,       169,
     61.05,       184,
      61.1,       176,
     61.15,       195,
      61.2,       209,
     61.25,       186,
      61.3,       191,
     61.35,       200,
      61.4,       197,
     61.45,       230,
      61.5,       201,
     61.55,       221,
      61.6,       217,
     61.65,       215,
      61.7,       212,
     61.75,       235,
      61.8,       257,
     61.85,       266,
      61.9,       272,
     61.95,       257,
        62,       270,
     62.05,       268,
      62.1,       322,
     62.15,       359,
      62.2,       331,
     62.25,       343,
      62.3,       366,
     62.35,       374,
      62.4,       448,
     62.45,       380,
      62.5,       426,
     62.55,       431,
      62.6,       450,
     62.65,       451,
      62.7,       486,
     62.75,       449,
      62.8,       488,
     62.85,       451,
      62.9,       432,
     62.95,       435,
        63,       411,
     63.05,       408,
      63.1,       423,
     63.15,       378,
      63.2,       333,
     63.25,       325,
      63.3,       326,
     63.35,       318,
      63.4,       345,
     63.45,       279,
      63.5,       291,
     63.55,       269,
      63.6,       240,
     63.65,       263,
      63.7,       237,
     63.75,       248,
      63.8,       233,
     63.85,       187,
      63.9,       207,
     63.95,       223,
        64,       188,
     64.05,       203,
      64.1,       185,
     64.15,       188,
      64.2,       167,
     64.25,       206,
      64.3,       173,
     64.35,       172,
      64.4,       168,
     64.45,       191,
      64.5,       157,
     64.55,       173,
      64.6,       178,
     64.65,       163,
      64.7,       176,
     64.75,       151,
      64.8,       180,
     64.85,       167,
      64.9,       157,
     64.95,       166,
        65,       173,
     65.05,       187,
      65.1,       158,
     65.15,       152,
      65.2,       136,
     65.25,       155,
      65.3,       158,
     65.35,       171,
      65.4,       158,
     65.45,       172,
      65.5,       155,
     65.55,       144,
      65.6,       146,
     65.65,       148,
      65.7,       177,
     65.75,       156,
      65.8,       162,
     65.85,       139,
      65.9,       161,
     65.95,       155,
        66,       144,
     66.05,       140,
      66.1,       146,
     66.15,       165,
      66.2,       162,
     66.25,       127,
      66.3,       146,
     66.35,       153,
      66.4,       165,
     66.45,       147,
      66.5,       162,
     66.55,       139,
      66.6,       123,
     66.65,       139,
      66.7,       152,
     66.75,       144,
      66.8,       133,
     66.85,       144,
      66.9,       136,
     66.95,       165,
        67,       154,
     67.05,       115,
      67.1,       164,
     67.15,       142,
      67.2,       134,
     67.25,       156,
      67.3,       153,
     67.35,       157,
      67.4,       154,
     67.45,       124,
      67.5,       153,
     67.55,       123,
      67.6,       141,
     67.65,       132,
      67.7,       142,
     67.75,       149,
      67.8,       139,
     67.85,       150,
      67.9,       149,
     67.95,       139,
        68,       134,
     68.05,       129,
      68.1,       135,
     68.15,       127,
      68.2,       125,
     68.25,       145,
      68.3,       138,
     68.35,       140,
      68.4,       133,
     68.45,       151,
      68.5,       136,
     68.55,       145,
      68.6,       146,
     68.65,       150,
      68.7,       127,
     68.75,       135,
      68.8,       137,
     68.85,       152,
      68.9,       136,
     68.95,       129,
        69,       151,
     69.05,       157,
      69.1,       134,
     69.15,       137,
      69.2,       139,
     69.25,       147,
      69.3,       139,
     69.35,       125,
      69.4,       132,
     69.45,       132,
      69.5,       137,
     69.55,       144,
      69.6,       166,
     69.65,       139,
      69.7,       147,
     69.75,       148,
      69.8,       155,
     69.85,       166,
      69.9,       131,
     69.95,       136,
        70,       128,
     70.05,       126,
      70.1,       151,
     70.15,       170,
      70.2,       149,
     70.25,       142,
      70.3,       151,
     70.35,       127,
      70.4,       136,
     70.45,       142,
      70.5,       139,
     70.55,       157,
      70.6,       189,
     70.65,       145,
      70.7,       172,
     70.75,       140,
      70.8,       166,
     70.85,       171,
      70.9,       145,
     70.95,       162,
        71,       143,
     71.05,       143,
      71.1,       150,
     71.15,       148,
      71.2,       177,
     71.25,       138,
      71.3,       153,
     71.35,       172,
      71.4,       164,
     71.45,       154,
      71.5,       158,
     71.55,       151,
      71.6,       156,
     71.65,       161,
      71.7,       139,
     71.75,       136,
      71.8,       137,
     71.85,       153,
      71.9,       161,
     71.95,       138,
        72,       162,
     72.05,       172,
      72.1,       136,
     72.15,       166,
      72.2,       128,
     72.25,       167,
      72.3,       142,
     72.35,       128,
      72.4,       151,
     72.45,       149,
      72.5,       153,
     72.55,       146,
      72.6,       147,
     72.65,       146,
      72.7,       141,
     72.75,       143,
      72.8,       133,
     72.85,       152,
      72.9,       145,
     72.95,       163,
        73,       159,
     73.05,       151,
      73.1,       154,
     73.15,       161,
      73.2,       156,
     73.25,       169,
      73.3,       148,
     73.35,       176,
      73.4,       168,
     73.45,       166,
      73.5,       157,
     73.55,       164,
      73.6,       164,
     73.65,       180,
      73.7,       191,
     73.75,       183,
      73.8,       183,
     73.85,       183,
      73.9,       178,
     73.95,       203,
        74,       184,
     74.05,       166,
      74.1,       188,
     74.15,       213,
      74.2,       200,
     74.25,       195,
      74.3,       209,
     74.35,       214,
      74.4,       197,
     74.45,       188,
      74.5,       191,
     74.55,       187,
      74.6,       213,
     74.65,       180,
      74.7,       188,
     74.75,       161,
      74.8,       190,
     74.85,       188,
      74.9,       169,
     74.95,       182,
        75,       178,
     75.05,       185,
      75.1,       165,
     75.15,       187,
      75.2,       147,
     75.25,       165,
      75.3,       156,
     75.35,       171,
      75.4,       160,
     75.45,       170,
      75.5,       164,
     75.55,       164,
      75.6,       170,
     75.65,       153,
      75.7,       164,
     75.75,       157,
      75.8,       164,
     75.85,       151,
      75.9,       169,
     75.95,       163,
        76,       154,
     76.05,       150,
      76.1,       157,
     76.15,       164,
      76.2,       143,
     76.25,       145,
      76.3,       150,
     76.35,       139,
      76.4,       163,
     76.45,       125,
      76.5,       125,
     76.55,       156,
      76.6,       147,
     76.65,       129,
      76.7,       145,
     76.75,       127,
      76.8,       130,
     76.85,       150,
      76.9,       145,
     76.95,       119,
        77,       146,
     77.05,       147,
      77.1,       121,
     77.15,       133,
      77.2,       130,
     77.25,       116,
      77.3,       151,
     77.35,       153,
      77.4,       130,
     77.45,       130,
      77.5,       128,
     77.55,       133,
      77.6,       153,
     77.65,       118,
      77.7,       132,
     77.75,       145,
      77.8,       146,
     77.85,       132,
      77.9,       141,
     77.95,       143,
        78,       126,
     78.05,       139,
      78.1,       129,
     78.15,       147,
      78.2,       165,
     78.25,       134,
      78.3,       128,
     78.35,       155,
      78.4,       143,
     78.45,       133,
      78.5,       135,
     78.55,       120,
      78.6,       142,
     78.65,       129,
      78.7,       149,
     78.75,       134,
      78.8,       154,
     78.85,       136,
      78.9,       159,
     78.95,       123,
        79,       130,
     79.05,       140,
      79.1,       133,
     79.15,       140,
      79.2,       155,
     79.25,       140,
      79.3,       163,
     79.35,       159,
      79.4,       145,
     79.45,       149,
      79.5,       145,
     79.55,       132,
      79.6,       152,
     79.65,       155,
      79.7,       123,
     79.75,       154,
      79.8,       155,
     79.85,       144,
      79.9,       134,
     79.95,       133,
        80,       126,
     80.05,       143,
      80.1,       138,
     80.15,       142,
      80.2,       128,
     80.25,       132,
      80.3,       132,
     80.35,       132,
      80.4,       128,
     80.45,       161,
      80.5,       126,
     80.55,       139,
      80.6,       128,
     80.65,       135,
      80.7,       131,
     80.75,       150,
      80.8,       142,
     80.85,       140,
      80.9,       138,
     80.95,       142,
        81,       110,
     81.05,       129,
      81.1,       132,
     81.15,       142,
      81.2,       129,
     81.25,       119,
      81.3,       134,
     81.35,       139,
      81.4,       123,
     81.45,       137,
      81.5,       127,
     81.55,       131,
      81.6,       144,
     81.65,       154,
      81.7,       116,
     81.75,       126,
      81.8,       146,
     81.85,       137,
      81.9,       129,
     81.95,       123,
        82,       134,
     82.05,       142,
      82.1,       137,
     82.15,       118,
      82.2,       128,
     82.25,       140,
      82.3,       150,
     82.35,       137,
      82.4,       135,
     82.45,       142,
      82.5,       131,
     82.55,       125,
      82.6,       135,
     82.65,       131,
      82.7,       143,
     82.75,       128,
      82.8,       139,
     82.85,       131,
      82.9,       102,
     82.95,       145,
        83,       140,
     83.05,       147,
      83.1,       136,
     83.15,       146,
      83.2,       133,
     83.25,       137,
      83.3,       116,
     83.35,       131,
      83.4,       115,
     83.45,       128,
      83.5,       123,
     83.55,       141,
      83.6,       144,
     83.65,       139,
      83.7,       151,
     83.75,       138,
      83.8,       132,
     83.85,       116,
      83.9,       123,
     83.95,       147,
        84,       137,
     84.05,       115,
      84.1,       131,
     84.15,       134,
      84.2,       148,
     84.25,       133,
      84.3,       144,
     84.35,       135,
      84.4,       143,
     84.45,       142,
      84.5,       129,
     84.55,       153,
      84.6,       109,
     84.65,       128,
      84.7,       145,
     84.75,       124,
      84.8,       141,
     84.85,       131,
      84.9,       134,
     84.95,       141,
        85,       132,
     85.05,       151,
      85.1,       107,
     85.15,       143,
      85.2,       130,
     85.25,       124,
      85.3,       137,
     85.35,       135,
      85.4,       132,
     85.45,       142,
      85.5,       117,
     85.55,       144,
      85.6,       127,
     85.65,       138,
      85.7,       149,
     85.75,       129,
      85.8,       149,
     85.85,       134,
      85.9,       132,
     85.95,       166,
        86,       130,
     86.05,       147,
      86.1,       132,
     86.15,       130,
      86.2,       155,
     86.25,       148,
      86.3,       157,
     86.35,       129,
      86.4,       166,
     86.45,       149,
      86.5,       141,
     86.55,       145,
      86.6,       131,
     86.65,       156,
      86.7,       147,
     86.75,       167,
      86.8,       165,
     86.85,       174,
      86.9,       156,
     86.95,       155,
        87,       166,
     87.05,       149,
      87.1,       155,
     87.15,       166,
      87.2,       166,
     87.25,       140,
      87.3,       159,
     87.35,       149,
      87.4,       156,
     87.45,       140,
      87.5,       165,
     87.55,       145,
      87.6,       164,
     87.65,       145,
      87.7,       156,
     87.75,       152,
      87.8,       154,
     87.85,       172,
      87.9,       156,
     87.95,       157,
        88,       179,
     88.05,       182,
      88.1,       160,
     88.15,       153,
      88.2,       163,
     88.25,       179,
      88.3,       141,
     88.35,       144,
      88.4,       145,
     88.45,       159,
      88.5,       146,
     88.55,       153,
      88.6,       162,
     88.65,       166,
      88.7,       162,
     88.75,       175,
      88.8,       164,
     88.85,       160,
      88.9,       156,
     88.95,       162,
        89,       156,
     89.05,       145,
      89.1,       193,
     89.15,       178,
      89.2,       210,
     89.25,       159,
      89.3,       179,
     89.35,       166,
      89.4,       202,
     89.45,       188,
      89.5,       189,
     89.55,       195,
      89.6,       210,
     89.65,       197,
      89.7,       202,
     89.75,       172,
      89.8,       217,
     89.85,       230,
      89.9,       215,
     89.95,       219,
        90,       201,
